# Pulseq sequence file
# Created by MATLAB mr toolbox

[VERSION]
major 1
minor 5
revision 1

[DEFINITIONS]
AdcRasterTime 1e-07 
BlockDurationRaster 1e-05 
FOV 0.1792 0.2464 0.224 
GradientRasterTime 1e-05 
Name mp_hcp_gt 
OrientationMapping SAG 
PhaseResolution 1 
RadiofrequencyRasterTime 1e-06 
ReadoutOversamplingFactor 1 
ReceiverGainHigh 1 
TotalDuration 460.80567 
kSpaceCenterLine 176 

# Format of blocks:
# NUM DUR RF  GX  GY  GZ  ADC  EXT
[BLOCKS]
    1 567   0   0   0   0  1  4
    2   0   0   0   0   0  0  5
    3   0   0   0   0   0  0  6
    4   0   0   0   0   0  0  2
    5 1036   2   0   0   0  0  0
    6 1246   0   0   1   0  0  0
    7 199   1   0   0   0  0  0
    8 567   0   4   4   3  1  0
    9 199   3   5   5   2  0  7
   10 567   0   6   4   3  2  0
   11 199   4   7   5   2  0  7
   12 567   0   8   4   3  3  0
   13 199   5   9   5   2  0  7
   14 567   0  10   4   3  4  0
   15 199   6  11   5   2  0  7
   16 567   0  12   4   3  5  0
   17 199   7  13   5   2  0  7
   18 567   0  14   4   3  6  0
   19 199   8  15   5   2  0  7
   20 567   0  16   4   3  7  0
   21 199   9  17   5   2  0  7
   22 567   0  18   4   3  8  0
   23 199   5  19   5   2  0  7
   24 567   0  20   4   3  4  0
   25 199   7  21   5   2  0  7
   26 567   0  22   4   3  6  0
   27 199  10  23   5   2  0  7
   28 567   0  24   4   3  9  0
   29 199   5  25   5   2  0  7
   30 567   0  26   4   3  4  0
   31 199  11  27   5   2  0  7
   32 567   0  28   4   3 10  0
   33 199   3  29   5   2  0  7
   34 567   0  30   4   3  2  0
   35 199   7  31   5   2  0  7
   36 567   0  32   4   3  6  0
   37 199   1  33   5   2  0  7
   38 567   0  34   4   3  1  0
   39 199  12  35   5   2  0  7
   40 567   0  36   4   3 11  0
   41 199   4  37   5   2  0  7
   42 567   0  38   4   3  3  0
   43 199   8  39   5   2  0  7
   44 567   0  40   4   3  7  0
   45 199   6  41   5   2  0  7
   46 567   0  42   4   3  5  0
   47 199   1  43   5   2  0  7
   48 567   0  44   4   3  1  0
   49 199   8  45   5   2  0  7
   50 567   0  46   4   3  7  0
   51 199  13  47   5   2  0  7
   52 567   0  48   4   3 12  0
   53 199   5  49   5   2  0  7
   54 567   0  50   4   3  4  0
   55 199   1  51   5   2  0  7
   56 567   0  52   4   3  1  0
   57 199  10  53   5   2  0  7
   58 567   0  54   4   3  9  0
   59 199   8  55   5   2  0  7
   60 567   0  56   4   3  7  0
   61 199  11  57   5   2  0  7
   62 567   0  58   4   3 10  0
   63 199  12  59   5   2  0  7
   64 567   0  60   4   3 11  0
   65 199   7  61   5   2  0  7
   66 567   0  62   4   3  6  0
   67 199   7  63   5   2  0  7
   68 567   0  64   4   3  6  0
   69 199  12  65   5   2  0  7
   70 567   0  66   4   3 11  0
   71 199  11  67   5   2  0  7
   72 567   0  68   4   3 10  0
   73 199   8  69   5   2  0  7
   74 567   0  70   4   3  7  0
   75 199  10  71   5   2  0  7
   76 567   0  72   4   3  9  0
   77 199   1  73   5   2  0  7
   78 567   0  74   4   3  1  0
   79 199   5  75   5   2  0  7
   80 567   0  76   4   3  4  0
   81 199  13  77   5   2  0  7
   82 567   0  78   4   3 12  0
   83 199   8  79   5   2  0  7
   84 567   0  80   4   3  7  0
   85 199   1  81   5   2  0  7
   86 567   0  82   4   3  1  0
   87 199   6  83   5   2  0  7
   88 567   0  84   4   3  5  0
   89 199   8  85   5   2  0  7
   90 567   0  86   4   3  7  0
   91 199   4  87   5   2  0  7
   92 567   0  88   4   3  3  0
   93 199  12  89   5   2  0  7
   94 567   0  90   4   3 11  0
   95 199   1  91   5   2  0  7
   96 567   0  92   4   3  1  0
   97 199   7  93   5   2  0  7
   98 567   0  94   4   3  6  0
   99 199   3  95   5   2  0  7
  100 567   0  96   4   3  2  0
  101 199  11  97   5   2  0  7
  102 567   0  98   4   3 10  0
  103 199   5  99   5   2  0  7
  104 567   0 100   4   3  4  0
  105 199  10 101   5   2  0  7
  106 567   0 102   4   3  9  0
  107 199   7 103   5   2  0  7
  108 567   0 104   4   3  6  0
  109 199   5 105   5   2  0  7
  110 567   0 106   4   3  4  0
  111 199   9 107   5   2  0  7
  112 567   0 108   4   3  8  0
  113 199   8 109   5   2  0  7
  114 567   0 110   4   3  7  0
  115 199   7 111   5   2  0  7
  116 567   0 112   4   3  6  0
  117 199   6 113   5   2  0  7
  118 567   0 114   4   3  5  0
  119 199   5 115   5   2  0  7
  120 567   0 116   4   3  4  0
  121 199   4 117   5   2  0  7
  122 567   0 118   4   3  3  0
  123 199   3 119   5   2  0  7
  124 567   0 120   4   3  2  0
  125 199   1 121   5   2  0  7
  126 567   0 122   4   3  1  0
  127 199   1 123   5   2  0  7
  128 567   0 124   4   3  1  0
  129 199   3 125   5   2  0  7
  130 567   0 126   4   3  2  0
  131 199   4 127   5   2  0  7
  132 567   0 128   4   3  3  0
  133 199   5 129   5   2  0  7
  134 567   0 130   4   3  4  0
  135 199   6 131   5   2  0  7
  136 567   0 132   4   3  5  0
  137 199   7 133   5   2  0  7
  138 567   0 134   4   3  6  0
  139 199   8 135   5   2  0  7
  140 567   0 136   4   3  7  0
  141 199   9 137   5   2  0  7
  142 567   0 138   4   3  8  0
  143 199   5 139   5   2  0  7
  144 567   0 140   4   3  4  0
  145 199   7 141   5   2  0  7
  146 567   0 142   4   3  6  0
  147 199  10 143   5   2  0  7
  148 567   0 144   4   3  9  0
  149 199   5 145   5   2  0  7
  150 567   0 146   4   3  4  0
  151 199  11 147   5   2  0  7
  152 567   0 148   4   3 10  0
  153 199   3 149   5   2  0  7
  154 567   0 150   4   3  2  0
  155 199   7 151   5   2  0  7
  156 567   0 152   4   3  6  0
  157 199   1 153   5   2  0  7
  158 567   0 154   4   3  1  0
  159 199  12 155   5   2  0  7
  160 567   0 156   4   3 11  0
  161 199   4 157   5   2  0  7
  162 567   0 158   4   3  3  0
  163 199   8 159   5   2  0  7
  164 567   0 160   4   3  7  0
  165 199   6 161   5   2  0  7
  166 567   0 162   4   3  5  0
  167 199   1 163   5   2  0  7
  168 567   0 164   4   3  1  0
  169 199   8 165   5   2  0  7
  170 567   0 166   4   3  7  0
  171 199  13 167   5   2  0  7
  172 567   0 168   4   3 12  0
  173 199   5 169   5   2  0  7
  174 567   0 170   4   3  4  0
  175 199   1 171   5   2  0  7
  176 567   0 172   4   3  1  0
  177 199  10 173   5   2  0  7
  178 567   0 174   4   3  9  0
  179 199   8 175   5   2  0  7
  180 567   0 176   4   3  7  0
  181 199  11 177   5   2  0  7
  182 567   0 178   4   3 10  0
  183 199  12 179   5   2  0  7
  184 567   0 180   4   3 11  0
  185 199   7 181   5   2  0  7
  186 567   0 182   4   3  6  0
  187 199   7 183   5   2  0  7
  188 567   0 184   4   3  6  0
  189 199  12 185   5   2  0  7
  190 567   0 186   4   3 11  0
  191 199  11 187   5   2  0  7
  192 567   0 188   4   3 10  0
  193 199   8 189   5   2  0  7
  194 567   0 190   4   3  7  0
  195 199  10 191   5   2  0  7
  196 567   0 192   4   3  9  0
  197 199   1 193   5   2  0  7
  198 567   0 194   4   3  1  0
  199 199   5 195   5   2  0  7
  200 567   0 196   4   3  4  0
  201 199  13 197   5   2  0  7
  202 567   0 198   4   3 12  0
  203 199   8 199   5   2  0  7
  204 567   0 200   4   3  7  0
  205 199   1 201   5   2  0  7
  206 567   0 202   4   3  1  0
  207 199   6 203   5   2  0  7
  208 567   0 204   4   3  5  0
  209 199   8 205   5   2  0  7
  210 567   0 206   4   3  7  0
  211 199   4 207   5   2  0  7
  212 567   0 208   4   3  3  0
  213 199  12 209   5   2  0  7
  214 567   0 210   4   3 11  0
  215 199   1 211   5   2  0  7
  216 567   0 212   4   3  1  0
  217 199   7 213   5   2  0  7
  218 567   0 214   4   3  6  0
  219 199   3 215   5   2  0  7
  220 567   0 216   4   3  2  0
  221 199  11 217   5   2  0  7
  222 567   0 218   4   3 10  0
  223 199   5 219   5   2  0  7
  224 567   0 220   4   3  4  0
  225 199  10 221   5   2  0  7
  226 567   0 222   4   3  9  0
  227 199   7 223   5   2  0  7
  228 567   0 224   4   3  6  0
  229 199   5 225   5   2  0  7
  230 567   0 226   4   3  4  0
  231 199   9 227   5   2  0  7
  232 567   0 228   4   3  8  0
  233 199   8 229   5   2  0  7
  234 567   0 230   4   3  7  0
  235 199   7 231   5   2  0  7
  236 567   0 232   4   3  6  0
  237 199   6 233   5   2  0  7
  238 567   0 234   4   3  5  0
  239 199   5 235   5   2  0  7
  240 567   0 236   4   3  4  0
  241 199   4 237   5   2  0  7
  242 567   0 238   4   3  3  0
  243 199   3 239   5   2  0  7
  244 567   0 240   4   3  2  0
  245 199   1 241   5   2  0  7
  246 567   0 242   4   3  1  0
  247 199   1 243   5   2  0  7
  248 567   0 244   4   3  1  0
  249 199   3 245   5   2  0  7
  250 567   0 246   4   3  2  0
  251 199   4 247   5   2  0  7
  252 567   0 248   4   3  3  0
  253 199   5 249   5   2  0  7
  254 567   0 250   4   3  4  0
  255 199   6 251   5   2  0  7
  256 567   0 252   4   3  5  0
  257 199   7 253   5   2  0  7
  258 567   0 254   4   3  6  0
  259 199   8 255   5   2  0  7
  260 567   0 256   4   3  7  0
  261 199   9 257   5   2  0  7
  262 567   0 258   4   3  8  0
  263 199   5 259   5   2  0  7
  264 567   0 260   4   3  4  0
  265 199   7 261   5   2  0  7
  266 567   0 259   4   3  6  0
  267 199  10 258   5   2  0  7
  268 567   0 257   4   3  9  0
  269 199   5 256   5   2  0  7
  270 567   0 255   4   3  4  0
  271 199  11 254   5   2  0  7
  272 567   0 253   4   3 10  0
  273 199   3 252   5   2  0  7
  274 567   0 251   4   3  2  0
  275 199   7 250   5   2  0  7
  276 567   0 249   4   3  6  0
  277 199   1 248   5   2  0  7
  278 567   0 247   4   3  1  0
  279 199  12 246   5   2  0  7
  280 567   0 245   4   3 11  0
  281 199   4 244   5   2  0  7
  282 567   0 243   4   3  3  0
  283 199   8 242   5   2  0  7
  284 567   0 241   4   3  7  0
  285 199   6 240   5   2  0  7
  286 567   0 239   4   3  5  0
  287 199   1 238   5   2  0  7
  288 567   0 237   4   3  1  0
  289 199   8 236   5   2  0  7
  290 567   0 235   4   3  7  0
  291 199  13 234   5   2  0  7
  292 567   0 233   4   3 12  0
  293 199   5 232   5   2  0  7
  294 567   0 231   4   3  4  0
  295 199   1 230   5   2  0  7
  296 567   0 229   4   3  1  0
  297 199  10 228   5   2  0  7
  298 567   0 227   4   3  9  0
[RF]
1      222.222 5 6 7 50 1870 0 0 0 0 e
2      563.681 8 9 10 5125 100 0 0 0 0 i
3      222.222 5 6 7 50 1870 0 0 0 1.46608 e
4      222.222 5 6 7 50 1870 0 0 0 4.39823 e
5      222.222 5 6 7 50 1870 0 0 0 2.51327 e
6      222.222 5 6 7 50 1870 0 0 0 2.0944 e
7      222.222 5 6 7 50 1870 0 0 0 3.14159 e
8      222.222 5 6 7 50 1870 0 0 0 5.65487 e
9      222.222 5 6 7 50 1870 0 0 0 3.35103 e
10      222.222 5 6 7 50 1870 0 0 0 5.23599 e
11      222.222 5 6 7 50 1870 0 0 0 1.25664 e
12      222.222 5 6 7 50 1870 0 0 0 4.60767 e
13      222.222 5 6 7 50 1870 0 0 0 0.20944 e

# Format of arbitrary gradients:
#   time_shape_id of 0 means default timing (stepping with grad_raster starting at 1/2 of grad_raster)
# id amplitude first last amp_shape_id time_shape_id delay
# ..      Hz/m  Hz/m Hz/m        ..         ..          us
[GRADIENTS]
2  1.27474e+06       297619            0 1 2 0
3 -1.27271e+06            0       297619 3 4 0

# Format of trapezoid gradients:
# id amplitude rise flat fall delay
# ..      Hz/m   us   us   us    us
[TRAP]
 1       577784 110 9780 110   0
 4  1.27551e+06 240  320 240   0
 5 -1.27551e+06 240  320 240   0
 6  1.26555e+06 240  320 240   0
 7 -1.26555e+06 240  320 240   0
 8  1.25558e+06 240  320 240   0
 9 -1.25558e+06 240  320 240   0
10  1.24562e+06 240  320 240   0
11 -1.24562e+06 240  320 240   0
12  1.23565e+06 240  320 240   0
13 -1.23565e+06 240  320 240   0
14  1.22569e+06 240  320 240   0
15 -1.22569e+06 240  320 240   0
16  1.21572e+06 240  320 240   0
17 -1.21572e+06 240  320 240   0
18  1.20576e+06 240  320 240   0
19 -1.20576e+06 240  320 240   0
20  1.19579e+06 240  320 240   0
21 -1.19579e+06 240  320 240   0
22  1.18583e+06 240  320 240   0
23 -1.18583e+06 240  320 240   0
24  1.17586e+06 240  320 240   0
25 -1.17586e+06 240  320 240   0
26   1.1659e+06 240  320 240   0
27  -1.1659e+06 240  320 240   0
28  1.15593e+06 240  320 240   0
29 -1.15593e+06 240  320 240   0
30  1.14597e+06 240  320 240   0
31 -1.14597e+06 240  320 240   0
32    1.136e+06 240  320 240   0
33   -1.136e+06 240  320 240   0
34  1.12604e+06 240  320 240   0
35 -1.12604e+06 240  320 240   0
36  1.11607e+06 240  320 240   0
37 -1.11607e+06 240  320 240   0
38  1.10611e+06 240  320 240   0
39 -1.10611e+06 240  320 240   0
40  1.09614e+06 240  320 240   0
41 -1.09614e+06 240  320 240   0
42  1.08618e+06 240  320 240   0
43 -1.08618e+06 240  320 240   0
44  1.07621e+06 240  320 240   0
45 -1.07621e+06 240  320 240   0
46  1.06625e+06 240  320 240   0
47 -1.06625e+06 240  320 240   0
48  1.05628e+06 240  320 240   0
49 -1.05628e+06 240  320 240   0
50  1.04632e+06 240  320 240   0
51 -1.04632e+06 240  320 240   0
52  1.03635e+06 240  320 240   0
53 -1.03635e+06 240  320 240   0
54  1.02639e+06 240  320 240   0
55 -1.02639e+06 240  320 240   0
56  1.01642e+06 240  320 240   0
57 -1.01642e+06 240  320 240   0
58  1.00646e+06 240  320 240   0
59 -1.00646e+06 240  320 240   0
60       996492 240  320 240   0
61      -996492 240  320 240   0
62       986527 240  320 240   0
63      -986527 240  320 240   0
64       976562 240  320 240   0
65      -976562 240  320 240   0
66       966598 240  320 240   0
67      -966598 240  320 240   0
68       956633 240  320 240   0
69      -956633 240  320 240   0
70       946668 240  320 240   0
71      -946668 240  320 240   0
72       936703 240  320 240   0
73      -936703 240  320 240   0
74       926738 240  320 240   0
75      -926738 240  320 240   0
76       916773 240  320 240   0
77      -916773 240  320 240   0
78       906808 240  320 240   0
79      -906808 240  320 240   0
80       896843 240  320 240   0
81      -896843 240  320 240   0
82       886878 240  320 240   0
83      -886878 240  320 240   0
84       876913 240  320 240   0
85      -876913 240  320 240   0
86       866948 240  320 240   0
87      -866948 240  320 240   0
88       856983 240  320 240   0
89      -856983 240  320 240   0
90       847018 240  320 240   0
91      -847018 240  320 240   0
92       837054 240  320 240   0
93      -837054 240  320 240   0
94       827089 240  320 240   0
95      -827089 240  320 240   0
96       817124 240  320 240   0
97      -817124 240  320 240   0
98       807159 240  320 240   0
99      -807159 240  320 240   0
100       797194 240  320 240   0
101      -797194 240  320 240   0
102       787229 240  320 240   0
103      -787229 240  320 240   0
104       777264 240  320 240   0
105      -777264 240  320 240   0
106       767299 240  320 240   0
107      -767299 240  320 240   0
108       757334 240  320 240   0
109      -757334 240  320 240   0
110       747369 240  320 240   0
111      -747369 240  320 240   0
112       737404 240  320 240   0
113      -737404 240  320 240   0
114       727439 240  320 240   0
115      -727439 240  320 240   0
116       717474 240  320 240   0
117      -717474 240  320 240   0
118       707510 240  320 240   0
119      -707510 240  320 240   0
120       697545 240  320 240   0
121      -697545 240  320 240   0
122       687580 240  320 240   0
123      -687580 240  320 240   0
124       677615 240  320 240   0
125      -677615 240  320 240   0
126       667650 240  320 240   0
127      -667650 240  320 240   0
128       657685 240  320 240   0
129      -657685 240  320 240   0
130       647720 240  320 240   0
131      -647720 240  320 240   0
132       637755 240  320 240   0
133      -637755 240  320 240   0
134       627790 240  320 240   0
135      -627790 240  320 240   0
136       617825 240  320 240   0
137      -617825 240  320 240   0
138       607860 240  320 240   0
139      -607860 240  320 240   0
140       597895 240  320 240   0
141      -597895 240  320 240   0
142       587930 240  320 240   0
143      -587930 240  320 240   0
144       577966 240  320 240   0
145      -577966 240  320 240   0
146       568001 240  320 240   0
147      -568001 240  320 240   0
148       558036 240  320 240   0
149      -558036 240  320 240   0
150       548071 240  320 240   0
151      -548071 240  320 240   0
152       538106 240  320 240   0
153      -538106 240  320 240   0
154       528141 240  320 240   0
155      -528141 240  320 240   0
156       518176 240  320 240   0
157      -518176 240  320 240   0
158       508211 240  320 240   0
159      -508211 240  320 240   0
160       498246 240  320 240   0
161      -498246 240  320 240   0
162       488281 240  320 240   0
163      -488281 240  320 240   0
164       478316 240  320 240   0
165      -478316 240  320 240   0
166       468351 240  320 240   0
167      -468351 240  320 240   0
168       458386 240  320 240   0
169      -458386 240  320 240   0
170       448422 240  320 240   0
171      -448422 240  320 240   0
172       438457 240  320 240   0
173      -438457 240  320 240   0
174       428492 240  320 240   0
175      -428492 240  320 240   0
176       418527 240  320 240   0
177      -418527 240  320 240   0
178       408562 240  320 240   0
179      -408562 240  320 240   0
180       398597 240  320 240   0
181      -398597 240  320 240   0
182       388632 240  320 240   0
183      -388632 240  320 240   0
184       378667 240  320 240   0
185      -378667 240  320 240   0
186       368702 240  320 240   0
187      -368702 240  320 240   0
188       358737 240  320 240   0
189      -358737 240  320 240   0
190       348772 240  320 240   0
191      -348772 240  320 240   0
192       338807 240  320 240   0
193      -338807 240  320 240   0
194       328842 240  320 240   0
195      -328842 240  320 240   0
196       318878 240  320 240   0
197      -318878 240  320 240   0
198       308913 240  320 240   0
199      -308913 240  320 240   0
200       298948 240  320 240   0
201      -298948 240  320 240   0
202       288983 240  320 240   0
203      -288983 240  320 240   0
204       279018 240  320 240   0
205      -279018 240  320 240   0
206       269053 240  320 240   0
207      -269053 240  320 240   0
208       259088 240  320 240   0
209      -259088 240  320 240   0
210       249123 240  320 240   0
211      -249123 240  320 240   0
212       239158 240  320 240   0
213      -239158 240  320 240   0
214       229193 240  320 240   0
215      -229193 240  320 240   0
216       219228 240  320 240   0
217      -219228 240  320 240   0
218       209263 240  320 240   0
219      -209263 240  320 240   0
220       199298 240  320 240   0
221      -199298 240  320 240   0
222       189334 240  320 240   0
223      -189334 240  320 240   0
224       179369 240  320 240   0
225      -179369 240  320 240   0
226       169404 240  320 240   0
227      -169404 240  320 240   0
228       159439 240  320 240   0
229      -159439 240  320 240   0
230       149474 240  320 240   0
231      -149474 240  320 240   0
232       139509 240  320 240   0
233      -139509 240  320 240   0
234       129544 240  320 240   0
235      -129544 240  320 240   0
236       119579 240  320 240   0
237      -119579 240  320 240   0
238       109614 240  320 240   0
239      -109614 240  320 240   0
240      99649.2 240  320 240   0
241     -99649.2 240  320 240   0
242      89684.3 240  320 240   0
243     -89684.3 240  320 240   0
244      79719.4 240  320 240   0
245     -79719.4 240  320 240   0
246      69754.5 240  320 240   0
247     -69754.5 240  320 240   0
248      59789.5 240  320 240   0
249     -59789.5 240  320 240   0
250      49824.6 240  320 240   0
251     -49824.6 240  320 240   0
252      39859.7 240  320 240   0
253     -39859.7 240  320 240   0
254      29894.8 240  320 240   0
255     -29894.8 240  320 240   0
256      19929.8 240  320 240   0
257     -19929.8 240  320 240   0
258      9964.92 240  320 240   0
259     -9964.92 240  320 240   0
260           -0 240  320 240   0
261            0 240  320 240   0
262  1.26102e+06 240  320 240   0
263 -1.26102e+06 240  320 240   0
264  1.24652e+06 240  320 240   0
265 -1.24652e+06 240  320 240   0
266  1.23203e+06 240  320 240   0
267 -1.23203e+06 240  320 240   0
268  1.21753e+06 240  320 240   0
269 -1.21753e+06 240  320 240   0
270  1.20304e+06 240  320 240   0
271 -1.20304e+06 240  320 240   0
272  1.18854e+06 240  320 240   0
273 -1.18854e+06 240  320 240   0
274  1.17405e+06 240  320 240   0
275 -1.17405e+06 240  320 240   0
276  1.15955e+06 240  320 240   0
277 -1.15955e+06 240  320 240   0
278  1.14506e+06 240  320 240   0
279 -1.14506e+06 240  320 240   0
280  1.13057e+06 240  320 240   0
281 -1.13057e+06 240  320 240   0
282  1.10158e+06 240  320 240   0
283 -1.10158e+06 240  320 240   0
284  1.08708e+06 240  320 240   0
285 -1.08708e+06 240  320 240   0
286  1.07259e+06 240  320 240   0
287 -1.07259e+06 240  320 240   0
288  1.05809e+06 240  320 240   0
289 -1.05809e+06 240  320 240   0
290   1.0436e+06 240  320 240   0
291  -1.0436e+06 240  320 240   0
292   1.0291e+06 240  320 240   0
293  -1.0291e+06 240  320 240   0
294  1.01461e+06 240  320 240   0
295 -1.01461e+06 240  320 240   0
296  1.00012e+06 240  320 240   0
297 -1.00012e+06 240  320 240   0
298       985622 240  320 240   0
299      -985622 240  320 240   0
300       971127 240  320 240   0
301      -971127 240  320 240   0
302       942138 240  320 240   0
303      -942138 240  320 240   0
304       927644 240  320 240   0
305      -927644 240  320 240   0
306       913149 240  320 240   0
307      -913149 240  320 240   0
308       898655 240  320 240   0
309      -898655 240  320 240   0
310       884160 240  320 240   0
311      -884160 240  320 240   0
312       869666 240  320 240   0
313      -869666 240  320 240   0
314       855172 240  320 240   0
315      -855172 240  320 240   0
316       840677 240  320 240   0
317      -840677 240  320 240   0
318       826183 240  320 240   0
319      -826183 240  320 240   0
320       811688 240  320 240   0
321      -811688 240  320 240   0
322       782699 240  320 240   0
323      -782699 240  320 240   0
324       768205 240  320 240   0
325      -768205 240  320 240   0
326       753711 240  320 240   0
327      -753711 240  320 240   0
328       739216 240  320 240   0
329      -739216 240  320 240   0
330       724722 240  320 240   0
331      -724722 240  320 240   0
332       710227 240  320 240   0
333      -710227 240  320 240   0
334       695733 240  320 240   0
335      -695733 240  320 240   0
336       681238 240  320 240   0
337      -681238 240  320 240   0
338       666744 240  320 240   0
339      -666744 240  320 240   0
340       652250 240  320 240   0
341      -652250 240  320 240   0
342       623261 240  320 240   0
343      -623261 240  320 240   0
344       608766 240  320 240   0
345      -608766 240  320 240   0
346       594272 240  320 240   0
347      -594272 240  320 240   0
348       579777 240  320 240   0
349      -579777 240  320 240   0
350       565283 240  320 240   0
351      -565283 240  320 240   0
352       550788 240  320 240   0
353      -550788 240  320 240   0
354       536294 240  320 240   0
355      -536294 240  320 240   0
356       521800 240  320 240   0
357      -521800 240  320 240   0
358       507305 240  320 240   0
359      -507305 240  320 240   0
360       492811 240  320 240   0
361      -492811 240  320 240   0
362       463822 240  320 240   0
363      -463822 240  320 240   0
364       449327 240  320 240   0
365      -449327 240  320 240   0
366       434833 240  320 240   0
367      -434833 240  320 240   0
368       420339 240  320 240   0
369      -420339 240  320 240   0
370       405844 240  320 240   0
371      -405844 240  320 240   0
372       391350 240  320 240   0
373      -391350 240  320 240   0
374       376855 240  320 240   0
375      -376855 240  320 240   0
376       362361 240  320 240   0
377      -362361 240  320 240   0
378       347866 240  320 240   0
379      -347866 240  320 240   0
380       333372 240  320 240   0
381      -333372 240  320 240   0
382       304383 240  320 240   0
383      -304383 240  320 240   0
384       289889 240  320 240   0
385      -289889 240  320 240   0
386       275394 240  320 240   0
387      -275394 240  320 240   0
388       260900 240  320 240   0
389      -260900 240  320 240   0
390       246405 240  320 240   0
391      -246405 240  320 240   0
392       231911 240  320 240   0
393      -231911 240  320 240   0
394       217417 240  320 240   0
395      -217417 240  320 240   0
396       202922 240  320 240   0
397      -202922 240  320 240   0
398       188428 240  320 240   0
399      -188428 240  320 240   0
400       173933 240  320 240   0
401      -173933 240  320 240   0
402       144944 240  320 240   0
403      -144944 240  320 240   0
404       130450 240  320 240   0
405      -130450 240  320 240   0
406       115955 240  320 240   0
407      -115955 240  320 240   0
408       108708 240  320 240   0
409      -108708 240  320 240   0
410       101461 240  320 240   0
411      -101461 240  320 240   0
412      94213.8 240  320 240   0
413     -94213.8 240  320 240   0
414      86966.6 240  320 240   0
415     -86966.6 240  320 240   0
416      72472.2 240  320 240   0
417     -72472.2 240  320 240   0
418        65225 240  320 240   0
419       -65225 240  320 240   0
420      57977.7 240  320 240   0
421     -57977.7 240  320 240   0
422      50730.5 240  320 240   0
423     -50730.5 240  320 240   0
424      43483.3 240  320 240   0
425     -43483.3 240  320 240   0
426      36236.1 240  320 240   0
427     -36236.1 240  320 240   0
428      28988.9 240  320 240   0
429     -28988.9 240  320 240   0
430      21741.7 240  320 240   0
431     -21741.7 240  320 240   0
432      14494.4 240  320 240   0
433     -14494.4 240  320 240   0
434      7247.22 240  320 240   0
435     -7247.22 240  320 240   0

# Format of ADC events:
# id num dwell delay freqPPM phasePPM freq phase phase_id
# ..  ..    ns    us     ppm  rad/MHz   Hz   rad       ..
[ADC]
1 320 15000 860 0 0 0 0 0
2 320 15000 860 0 0 0 1.46608 0
3 320 15000 860 0 0 0 4.39823 0
4 320 15000 860 0 0 0 2.51327 0
5 320 15000 860 0 0 0 2.0944 0
6 320 15000 860 0 0 0 3.14159 0
7 320 15000 860 0 0 0 5.65487 0
8 320 15000 860 0 0 0 3.35103 0
9 320 15000 860 0 0 0 5.23599 0
10 320 15000 860 0 0 0 1.25664 0
11 320 15000 860 0 0 0 4.60767 0
12 320 15000 860 0 0 0 0.20944 0

# Format of extension lists:
# id type ref next_id
# next_id of 0 terminates the list
# Extension list is followed by extension specifications
[EXTENSIONS]
1 1 3 0
2 1 4 1
3 1 5 2
4 1 6 3
5 1 7 0
6 1 5 0
7 3 1 0
8 3 2 0
9 1 8 8
10 1 1 0
11 1 2 10
12 3 3 0
13 1 8 12
14 1 4 10
15 3 4 0
16 1 8 15

# Extension specification for setting labels:
# id set labelstring
extension LABELSET 1
1 1 REF
2 1 IMA
3 0 REF
4 0 IMA
5 0 LIN
6 1 NOISE
7 0 NOISE
8 0 PAR

# Extension specification for increasing labels:
# id inc labelstring
extension LABELINC 3
1 1 PAR
2 2 LIN
3 1 LIN
4 0 LIN

# Sequence Shapes
[SHAPES]

shape_id 1
num_samples 4
0.23347398
1
1
0

shape_id 2
num_samples 4
0
18
163
187

shape_id 3
num_samples 6
-0
1
1
-0
-0.233846154
-0.233846154

shape_id 4
num_samples 6
0
23
57
80
86
567

shape_id 5
num_samples 2
1
1

shape_id 6
num_samples 2
0
0

shape_id 7
num_samples 2
0
100

shape_id 8
num_samples 1024
0.0332689869
0.0335360565
0.0338052677
0.0340766374
0.034350183
0.0346259218
0.0349038714
0.0351840494
0.0354664736
0.0357511619
0.0360381325
0.0363274036
0.0366189935
0.0369129207
0.0372092039
0.037507862
0.0378089138
0.0381123785
0.0384182752
0.0387266236
0.0390374429
0.0393507531
0.039666574
0.0399849255
0.0403058279
0.0406293015
0.0409553668
0.0412840445
0.0416153554
0.0419493204
0.0422859608
0.0426252977
0.0429673529
0.0433121477
0.0436597042
0.0440100443
0.0443631901
0.0447191639
0.0450779884
0.0454396862
0.0458042801
0.0461717932
0.0465422487
0.04691567
0.0472920807
0.0476715046
0.0480539656
0.0484394879
0.0488280958
0.0492198138
0.0496146666
0.0500126791
0.0504138764
0.0508182839
0.0512259269
0.0516368312
0.0520510227
0.0524685274
0.0528893716
0.0533135818
0.0537411847
0.0541722072
0.0546066763
0.0550446195
0.0554860642
0.0559310381
0.0563795693
0.0568316859
0.0572874161
0.0577467888
0.0582098326
0.0586765766
0.05914705
0.0596212824
0.0600993035
0.0605811431
0.0610668315
0.0615563991
0.0620498764
0.0625472944
0.0630486841
0.0635540768
0.0640635041
0.0645769979
0.0650945902
0.0656163132
0.0661421996
0.066672282
0.0672065935
0.0677451674
0.0682880373
0.0688352368
0.0693868001
0.0699427613
0.0705031552
0.0710680164
0.07163738
0.0722112814
0.0727897561
0.0733728401
0.0739605693
0.0745529803
0.0751501096
0.0757519943
0.0763586715
0.0769701786
0.0775865535
0.0782078342
0.078834059
0.0794652664
0.0801014955
0.0807427852
0.0813891752
0.0820407051
0.0826974149
0.083359345
0.0840265359
0.0846990287
0.0853768644
0.0860600847
0.0867487312
0.0874428461
0.0881424718
0.0888476509
0.0895584266
0.0902748421
0.090996941
0.0917247674
0.0924583653
0.0931977795
0.0939430547
0.0946942361
0.0954513694
0.0962145002
0.0969836748
0.0977589396
0.0985403415
0.0993279274
0.100121745
0.100921842
0.101728266
0.102541066
0.103360291
0.10418599
0.105018212
0.105857006
0.106702424
0.107554515
0.108413331
0.109278922
0.11015134
0.111030636
0.111916863
0.112810074
0.11371032
0.114617656
0.115532135
0.11645381
0.117382736
0.118318968
0.11926256
0.120213568
0.121172048
0.122138054
0.123111644
0.124092875
0.125081803
0.126078485
0.127082981
0.128095347
0.129115642
0.130143924
0.131180254
0.132224691
0.133277294
0.134338124
0.135407241
0.136484707
0.137570582
0.138664928
0.139767808
0.140879283
0.141999417
0.143128272
0.144265912
0.145412401
0.146567803
0.147732182
0.148905604
0.150088132
0.151279834
0.152480774
0.15369102
0.154910637
0.156139692
0.157378253
0.158626388
0.159884164
0.161151649
0.162428912
0.163716022
0.165013049
0.166320061
0.167637128
0.168964322
0.170301712
0.171649368
0.173007364
0.174375768
0.175754655
0.177144094
0.178544159
0.179954923
0.181376458
0.182808837
0.184252134
0.185706423
0.187171777
0.18864827
0.190135978
0.191634975
0.193145335
0.194667135
0.196200449
0.197745353
0.199301923
0.200870235
0.202450366
0.204042391
